Time [s] 	 Voltage 	 Gain=4.096
0.0395450592041	0.066875
0.0494530200958	0.227875
0.0593159198761	0.363875
0.0691678524017	0.477875
0.0792219638824	0.54375
0.0892009735107	0.57175
0.0990710258484	0.585875
0.108932971954	0.594625
0.118798971176	0.600875
0.128880977631	0.605375
0.138839960098	0.609125
0.148707866669	0.61225
0.159891843796	0.61475
0.169811010361	0.617
0.179877996445	0.618625
0.189847946167	0.62
0.199725866318	0.621125
0.209589004517	0.622125
0.219445943832	0.623
0.229482889175	0.623875
0.239666938782	0.6245
0.249649047852	0.625125
0.259523868561	0.62575
0.269388914108	0.626125
0.279444932938	0.6265
0.289443016052	0.626875
0.299670934677	0.627375
0.309659957886	0.627375
0.319529056549	0.627875
0.329565048218	0.628
0.339521884918	0.628125
0.349417924881	0.628375
0.359287023544	0.628375
0.369151830673	0.628625
0.379189968109	0.628875
0.389152050018	0.628875
0.39902305603	0.629
0.408889055252	0.629
0.418756961823	0.62925
0.428776025772	0.629
0.438742876053	0.62925
0.448621988297	0.629375
0.458487987518	0.629375
0.468345880508	0.629375
0.478370904922	0.6295
0.488330841064	0.629625
0.498208045959	0.629625
0.508086919785	0.629625
0.517946004868	0.629625
0.527909994125	0.629625
0.537931919098	0.6295
0.547824859619	0.62975
0.557685852051	0.629625
0.567546844482	0.62975
0.577471017838	0.62975
0.587543964386	0.629625
0.597729921341	0.62975
0.608032941818	0.6295
0.618027925491	0.629875
0.627914905548	0.62975
0.637972831726	0.62975
0.647934913635	0.629625
0.657817840576	0.62975
0.667676925659	0.62975
0.677574872971	0.62975
0.68763589859	0.629875
0.697600841522	0.62975
0.707464933395	0.62975
0.717324972153	0.62975
0.727190971375	0.62975
0.73724603653	0.62975
0.747208833694	0.62975
0.757078886032	0.630125
0.766949892044	0.629875
0.776852846146	0.63
0.786880016327	0.62975
0.79684305191	0.629875
0.80674290657	0.62975
0.816612958908	0.62975
0.826486825943	0.63
0.836520910263	0.62975
0.846513032913	0.62975
0.856391906738	0.62975
0.86625790596	0.62975
0.876121044159	0.62975
0.886219024658	0.63
0.896206855774	0.629875
0.90643286705	0.63
0.916543006897	0.629875
0.926450014114	0.62975
0.936517953873	0.62975
0.946478843689	0.629875
0.956343889236	0.629875
0.966209888458	0.63
0.976073980331	0.62975
0.986115932465	0.629625
0.996088981628	0.63
1.00597786903	0.629875
1.01584386826	0.63
1.02570700645	0.63
1.03573799133	0.63
1.04571199417	0.63
1.05558896065	0.629875
1.06545090675	0.629875
1.07531285286	0.63
1.08530592918	0.629875
1.09534597397	0.629875
1.10524702072	0.629875
1.11511492729	0.63
1.125	0.629875
1.13488698006	0.629875
1.14495491982	0.629875
1.1548910141	0.63
1.16476202011	0.629875
1.17462801933	0.629875
1.18454003334	0.629875
1.19460582733	0.629875
1.20476794243	0.63
1.21506595612	0.62975
1.2250649929	0.629875
1.23495697975	0.63
1.24503087997	0.629875
1.25502490997	0.629875
1.2649140358	0.62975
1.27478289604	0.629875
1.28469491005	0.629875
1.29476284981	0.630125
1.30474686623	0.630125
1.31462192535	0.63
1.32448983192	0.630125
1.33435797691	0.62975
1.34443187714	0.629875
1.35440802574	0.63
1.36430001259	0.62975
1.37416887283	0.629875
1.38403391838	0.63
1.39413404465	0.629875
1.40411400795	0.629875
1.41398692131	0.629875
1.42385482788	0.62975
1.43371796608	0.629875
1.44383382797	0.62975
1.45381093025	0.63
1.46368598938	0.629875
1.47360897064	0.629875
1.48351693153	0.629625
1.49363493919	0.629875
1.50365304947	0.629875
1.5139708519	0.630125
1.52424788475	0.62975
1.5344350338	0.63
1.54467988014	0.63
1.55474805832	0.629875
1.56484389305	0.629875
1.57483100891	0.629875
1.58629989624	0.629875
1.59656405449	0.63
1.60658788681	0.629875
1.61723589897	0.629875
1.62720298767	0.63
1.63707184792	0.629875
1.64715600014	0.629875
1.657132864	0.630125
1.66700601578	0.629875
1.6768758297	0.629875
1.6867480278	0.629875
1.69677686691	0.630125
1.70674204826	0.629875
1.71661996841	0.63
1.72648882866	0.629875
1.73660993576	0.629875
1.74677085876	0.63
1.75675487518	0.629875
1.76664686203	0.630125
1.77652382851	0.63
1.78638792038	0.63
1.79639697075	0.630125
1.80642294884	0.629875
1.8166270256	0.629875
1.82688593864	0.629875
1.83687400818	0.629875
1.84689998627	0.62975
1.85697698593	0.63
1.86687493324	0.63
1.87673592567	0.62975
1.88659787178	0.629625
1.8965408802	0.629875
1.90662384033	0.62975
1.91655302048	0.63
1.92645192146	0.629875
1.93631386757	0.629875
1.94617700577	0.629875
1.95620989799	0.62975
1.96617484093	0.63
1.97604084015	0.629875
1.98590302467	0.63
1.99580597878	0.63
2.00584793091	0.62975
2.01581287384	0.63
2.02567982674	0.62975
2.03553891182	0.63
2.04540491104	0.62975
2.05545592308	0.630125
2.06542205811	0.629875
2.07529497147	0.629875
2.08516287804	0.62975
2.09502482414	0.63
2.10512089729	0.63
2.11537003517	0.63
2.12565398216	0.629875
2.13564491272	0.63
2.14551782608	0.63
2.15555882454	0.630125
2.16552591324	0.63
2.17540287971	0.63
2.18526983261	0.629875
2.19513702393	0.630125
2.20526695251	0.63
2.215239048	0.629875
2.22511601448	0.629875
2.23498487473	0.629875
2.24485087395	0.629625
2.25488305092	0.629875
2.26484894753	0.629875
2.27472805977	0.629875
2.2845928669	0.629875
2.29445886612	0.63
2.30449485779	0.63
2.31445789337	0.629875
2.32433104515	0.63
2.33419585228	0.63
2.34408998489	0.63
2.35414195061	0.629875
2.364153862	0.63
2.37404990196	0.63
2.38392305374	0.63
2.39379191399	0.629875
2.40375304222	0.629875
2.41380500793	0.629875
2.42402887344	0.63
2.43432784081	0.63
2.44431090355	0.630125
2.45428085327	0.629875
2.46440005302	0.629875
2.47432494164	0.63
2.4842209816	0.630125
2.49408984184	0.62975
2.50401997566	0.629875
2.51410889626	0.63
2.52407693863	0.63
2.53394794464	0.62975
2.54381489754	0.629875
2.55367994308	0.629875
2.563808918	0.630125
2.5737760067	0.629875
2.58364892006	0.63
2.59357190132	0.629875
2.60343503952	0.63
2.613478899	0.629875
2.62350702286	0.629875
2.63339304924	0.63
2.64326286316	0.63
2.65313196182	0.629875
2.6631770134	0.63
2.67314291	0.62975
2.68302083015	0.629875
2.69288396835	0.629875
2.70274400711	0.629875
2.71278691292	0.629625
2.72286605835	0.63
2.73315095901	0.630125
2.74315285683	0.63
2.75302195549	0.629875
2.76311993599	0.629875
2.77309298515	0.629875
2.7829618454	0.629875
2.79281997681	0.629875
2.80268287659	0.629875
2.81272292137	0.629875
2.82269501686	0.629875
2.83264303207	0.63
2.8425359726	0.63
2.85244703293	0.629875
2.86251997948	0.63
2.87262797356	0.629875
2.88250994682	0.629875
2.89241790771	0.629875
2.90228700638	0.63
2.91232800484	0.62975
2.92231082916	0.629875
2.93218302727	0.63
2.9420440197	0.63
2.95190501213	0.63
2.96192502975	0.629875
2.97192788124	0.629875
2.98182487488	0.630125
2.99168896675	0.63
3.00155091286	0.629875
3.01148200035	0.629875
3.0215408802	0.630125
3.03175997734	0.629875
3.04213786125	0.629875
3.05216693878	0.63025
3.06212306023	0.629875
3.07222890854	0.629875
3.08227396011	0.63
3.09221601486	0.63025
3.10208392143	0.63
3.111992836	0.629875
3.12209486961	0.630125
3.13207292557	0.62975
3.14194297791	0.62975
3.15180397034	0.63
3.16167092323	0.63
3.17168283463	0.63
3.18172383308	0.629875
3.19159698486	0.62975
3.20145702362	0.629875
3.21136498451	0.629875
3.22139596939	0.63
3.2313709259	0.63
3.24150586128	0.63
3.2514898777	0.629875
3.26139688492	0.63
3.27146291733	0.63
3.28145599365	0.629875
3.2913339138	0.629875
3.30119895935	0.63
3.31106090546	0.629875
3.32117986679	0.63
3.33130097389	0.629875
3.3415749073	0.629875
3.35156202316	0.630125
3.36143684387	0.630125
3.37147688866	0.63
3.3814368248	0.63
3.39130592346	0.629625
3.4011759758	0.63
3.41103887558	0.630125
3.42106699944	0.629875
3.43102502823	0.62975
3.44089603424	0.63
3.45075798035	0.62975
3.46061682701	0.63
3.47063088417	0.63
3.48059487343	0.629875
3.49047398567	0.629875
3.50033187866	0.63
3.51019191742	0.63
3.52022099495	0.630125
3.53019595146	0.629875
3.5400660038	0.629875
3.54992699623	0.62975
3.55978989601	0.629875
3.56979584694	0.629875
3.5798368454	0.63
3.58972191811	0.629875
3.59962105751	0.63
3.60948491096	0.63
3.61945104599	0.629875
3.62952685356	0.629875
3.6397550106	0.629875
3.6500480175	0.630125
3.66004085541	0.630125
3.66994190216	0.63
3.6931219101	0.63
3.70320701599	0.63
3.71308588982	0.63
3.72312688828	0.63
3.73310804367	0.63
3.74298501015	0.629875
3.75285196304	0.629875
3.76271295547	0.629875
3.77270293236	0.62975
3.78271794319	0.630125
3.79280400276	0.63
3.80269503593	0.630125
3.81256103516	0.62975
3.82256293297	0.629875
3.8327050209	0.629875
3.84268498421	0.62975
3.85255503654	0.630125
3.86245989799	0.63
3.87237691879	0.629875
3.88245296478	0.630125
3.8924779892	0.630125
3.90239286423	0.63
3.91225886345	0.62975
3.922123909	0.629875
3.93217086792	0.629875
3.94242286682	0.629875
3.95280504227	0.629875
3.96279883385	0.63
3.97267484665	0.63
3.98271298409	0.630125
3.99267601967	0.629625
4.00254583359	0.63
4.04157495499	0.61975
4.05144906044	0.61625
4.06130290031	0.613
4.0711710453	0.6095
4.08121705055	0.605625
4.09117889404	0.60125
4.10104894638	0.597
4.11091303825	0.592125
4.12078690529	0.586875
4.13082695007	0.581
4.14078688622	0.574
4.1506588459	0.56625
4.16051983833	0.557125
4.17038083076	0.54575
4.18040895462	0.531875
4.19037294388	0.514375
4.20024490356	0.494
4.21010804176	0.47125
4.2199678421	0.447625
4.23000001907	0.424125
4.23996686935	0.401
4.25022292137	0.379125
4.26040005684	0.3575
4.27033495903	0.3375
4.28037905693	0.31925
4.29034805298	0.301375
4.30022192001	0.28475
4.31008195877	0.26925
4.31994104385	0.25475
4.3300409317	0.24075
4.34006905556	0.227375
4.34995484352	0.21475
4.35981798172	0.203125
4.36967897415	0.191875
4.37958502769	0.18175
4.38963794708	0.171625
4.39955496788	0.162125
4.40942692757	0.1535
4.41929292679	0.145125
4.42919802666	0.13725
4.43931984901	0.129625
4.44928503036	0.1225
4.45915484428	0.11575
4.46901488304	0.1095
4.47887682915	0.103625
4.48890900612	0.098
4.49887800217	0.0925
4.50874996185	0.0875
4.51861095428	0.082875
4.52847790718	0.07825
4.53851699829	0.074
4.54865288734	0.07
4.55893588066	0.066
4.56892585754	0.062375
4.57879805565	0.058875
4.58883690834	0.055625
4.5988008976	0.052625
4.6086769104	0.04975
4.61853885651	0.046875
4.62840294838	0.0445
4.63845086098	0.042
4.64842605591	0.03975
4.65830302238	0.0375
4.66816782951	0.0355
4.67802786827	0.0335
4.68805789948	0.031875
4.69804406166	0.029875
4.7079179287	0.028375
4.71778082848	0.026625
4.72764086723	0.025125
4.73783993721	0.023875
4.74787688255	0.0225
4.75777482986	0.021125
4.76764392853	0.02
4.77750897408	0.01875
4.787555933	0.017875
4.79752993584	0.01675
4.80740785599	0.015875
4.81727385521	0.01475
4.82713198662	0.014125
4.83716893196	0.013125
4.84716200829	0.012625
4.85739994049	0.0115
4.86766004562	0.011
4.87762784958	0.01025
4.88767004013	0.009875
4.89764285088	0.008875
4.90751695633	0.0085
4.91737890244	0.007875
4.92724895477	0.007625
4.93735694885	0.006875
4.94736099243	0.0065
4.95724105835	0.006125
4.96711301804	0.00575
4.9769718647	0.00525
4.98701405525	0.005125
4.9970729351	0.0045
5.00696992874	0.00425
5.01682806015	0.003875
5.02668690681	0.00375
5.03660583496	0.00325
5.04666304588	0.003125
5.05660605431	0.002625
5.06646704674	0.002625
5.07632684708	0.00225
5.08620285988	0.002125
5.09624791145	0.001875
5.1062040329	0.00175
5.11607503891	0.001375
5.12594199181	0.00125
5.13581204414	0.001125
5.14584684372	0.001125
5.15599703789	0.00075
5.16627597809	0.000875
5.1762650013	0.0005
5.18614006042	0.0005
5.19617390633	0.00025
5.20614600182	0.00025
5.21602392197	0.0
5.22589182854	0.0
5.23575687408	-0.00025
5.24579191208	0.0
5.2557618618	-0.0005
5.26563191414	-0.00025
5.27549386024	-0.000625
5.28535985947	-0.000625
5.29544997215	-0.00075
5.30542802811	-0.000625
5.31530284882	-0.001
5.32517504692	-0.00075
5.33504486084	-0.001
5.34514904022	-0.000875
5.35514187813	-0.00125
5.36501789093	-0.001125
5.37488484383	-0.001125
5.38475084305	-0.00125
5.39484095573	-0.00125
5.40481996536	-0.00125
5.41469192505	-0.0015
5.42455792427	-0.001375
5.43442583084	-0.0015
5.44453191757	-0.001375
5.45452594757	-0.001625
5.46540689468	-0.001375
5.47542905807	-0.001625
5.48532485962	-0.001625
5.49543595314	-0.001625
5.50542402267	-0.001625
5.51529788971	-0.00175
5.52516794205	-0.00175
5.53503298759	-0.001875
5.54514789581	-0.001875
5.55514383316	-0.002
5.56502604485	-0.00175
5.5748898983	-0.002
5.58475494385	-0.001875
5.59573984146	-0.002
5.60573005676	-0.001875
5.61561083794	-0.002125
5.62546992302	-0.001875
5.63533306122	-0.002125
5.64644289017	-0.002
5.65643882751	-0.00225
5.66630983353	-0.002125
5.67617583275	-0.00225
5.68604397774	-0.002125
5.69711494446	-0.00225
5.70709705353	-0.002
5.71696686745	-0.002375
5.72682785988	-0.002125
5.73668789864	-0.00225
5.74782299995	-0.002375
5.75781083107	-0.0025
5.76936388016	-0.002125
5.77939200401	-0.002375
5.78926992416	-0.002125
5.79938292503	-0.002375
5.80937695503	-0.00225
5.81924986839	-0.0025
5.82911396027	-0.00225
5.83897089958	-0.0025
5.84925603867	-0.002375
5.85925483704	-0.0025
5.86912202835	-0.00225
5.87898683548	-0.002375
5.88886404037	-0.0025
5.89994692802	-0.002625
5.90994000435	-0.002375
5.91981101036	-0.002625
5.92967295647	-0.002375
5.93953800201	-0.002375
5.95064282417	-0.002375
5.96062898636	-0.0025
5.97050595284	-0.0025
5.98036789894	-0.002625
5.99023103714	-0.002625
6.00133895874	-0.002625
6.01133704185	-0.0025
6.02121090889	-0.0025
6.031072855	-0.0025
6.04093694687	-0.00275
6.05207586288	-0.002625
6.06209492683	-0.002625
6.07264399529	-0.00225
6.08284783363	-0.0025
6.09278202057	-0.002625
6.10284090042	-0.002625
6.11283302307	-0.002625
6.1227478981	-0.00275
6.13268089294	-0.002625
6.14254403114	-0.002625
6.15266704559	-0.002625
6.1627509594	-0.00275
6.17264890671	-0.0025
6.18250799179	-0.0025
6.19243192673	-0.002625
6.20234298706	-0.00275
6.21243786812	-0.002625
6.2224240303	-0.002625
6.23229384422	-0.002625
6.24248099327	-0.002875
6.25267887115	-0.00275
6.26276397705	-0.00275
6.27271389961	-0.002625
6.28262591362	-0.00275
6.29248905182	-0.002625
6.30239105225	-0.00275
6.31244087219	-0.002625
6.32246899605	-0.00275
6.3323829174	-0.00275
6.34225082397	-0.00275
6.35220503807	-0.0025
6.36225891113	-0.00275
6.37238383293	-0.002625
6.38275885582	-0.00275
6.39277005196	-0.00275
6.40264296532	-0.002875
6.41268897057	-0.002875
6.42264986038	-0.00275
6.43251490593	-0.00275
6.44245195389	-0.002875
6.45240283012	-0.002875
6.46244287491	-0.002625
6.47244286537	-0.00275
6.48238587379	-0.002875
6.49225687981	-0.00275
6.5021378994	-0.003
6.51219296455	-0.00275
6.52219390869	-0.002875
6.53208303452	-0.00275
6.54195094109	-0.002875
6.55181503296	-0.002875
6.5619058609	-0.002875
6.57188200951	-0.00275
6.58175802231	-0.003
6.59167504311	-0.002625
6.60153484344	-0.002875
6.61161589622	-0.00275
6.62158298492	-0.003
6.63145399094	-0.002875
6.64132595062	-0.003125
6.65121388435	-0.00275
6.66129183769	-0.002875
6.67151904106	-0.00275
6.68351697922	-0.003125
6.6935968399	-0.00275
6.70386099815	-0.003125
6.71415090561	-0.00275
6.72415804863	-0.002875
6.73432302475	-0.00275
6.74450683594	-0.002875
6.75457191467	-0.002875
6.76466703415	-0.002875
6.7746489048	-0.002875
6.78453397751	-0.002875
6.79440188408	-0.002875
6.80427098274	-0.002875
6.81431388855	-0.00275
6.82428884506	-0.002875
6.83417201042	-0.002875
6.84404301643	-0.002875
6.85395598412	-0.002875
6.86400604248	-0.002875
6.87399291992	-0.003
6.88387393951	-0.002875
6.89374494553	-0.003
6.90367603302	-0.003
6.91393303871	-0.003
6.92391204834	-0.003
6.93379282951	-0.002875
6.94366192818	-0.003
6.95358395576	-0.003
6.96374487877	-0.002875
6.97374892235	-0.002875
6.98557686806	-0.002875
6.99562692642	-0.003
7.0055129528	-0.002875
7.0155608654	-0.003
7.02552700043	-0.003
7.03541088104	-0.003
7.04528188705	-0.002875
7.05519890785	-0.003
7.06524300575	-0.003125
7.07523488998	-0.002875
7.08511805534	-0.003
7.09498596191	-0.002875
7.10485291481	-0.003
7.11490297318	-0.003
7.12499094009	-0.003
7.13490104675	-0.002875
7.14477205276	-0.003
7.15463685989	-0.003
7.16455698013	-0.003125
7.17463684082	-0.003
7.18459606171	-0.003
7.19446587563	-0.003
7.20433092117	-0.003
7.21419787407	-0.002875
7.22423601151	-0.003125
7.23420095444	-0.003
7.24409294128	-0.003
7.25496387482	-0.002875
7.26496005058	-0.002875
7.27504491806	-0.002875
7.28519892693	-0.003125
7.29596590996	-0.003
7.30599093437	-0.003
7.31587100029	-0.003125
7.32596492767	-0.003125
7.33592486382	-0.003
7.34579396248	-0.002875
7.35566997528	-0.003
7.36557984352	-0.003
7.37568902969	-0.003
7.38566398621	-0.003
7.39553189278	-0.003
7.40539598465	-0.003
7.4152970314	-0.003
7.42545986176	-0.002875
7.43543601036	-0.003125
7.44531583786	-0.003125
7.45522093773	-0.003
7.46515488625	-0.00325
7.47529006004	-0.003
7.48527503014	-0.003125
7.49516105652	-0.002875
7.50503897667	-0.003
7.51490283012	-0.003
7.52499985695	-0.003
7.53502392769	-0.003
7.54493188858	-0.00325
7.55480790138	-0.003
7.56466603279	-0.003
7.57478284836	-0.003
7.59063005447	-0.003125
7.60100984573	-0.00325
7.6110188961	-0.002875
7.62167000771	-0.00325
7.63188886642	-0.003
7.64184689522	-0.003125
7.65172386169	-0.003125
7.6615819931	-0.00325
7.67150902748	-0.003
7.6824889183	-0.00325
7.69251084328	-0.003125
7.70243692398	-0.003125
7.71233296394	-0.003
7.72221088409	-0.003125
7.73311805725	-0.003
7.74335694313	-0.003125
7.7533659935	-0.003
7.76324295998	-0.00325
7.77315998077	-0.003
7.78414201736	-0.003125
7.7941429615	-0.002875
7.80404400826	-0.003
7.81390786171	-0.003125
7.82377099991	-0.003
7.83482885361	-0.003125
7.8448009491	-0.00325
7.85467100143	-0.003125
7.864538908	-0.00325
7.87445092201	-0.003125
7.88552188873	-0.00325
7.89599990845	-0.003125
7.90636897087	-0.003125
7.9163479805	-0.003
7.927120924	-0.003
7.93726992607	-0.003
7.94721484184	-0.003125
7.95708799362	-0.003
7.96695899963	-0.003125
7.97813296318	-0.00325
7.98825502396	-0.003
7.99814796448	-0.00325
8.00801491737	-0.00325
